0.736
0.744
0.752
0.756
0.720
0.756
0.780
0.768
0.712
0.724
0.748
0.760
0.728
0.756
0.764
0.740
0.748
0.780
0.816
0.748
0.760
0.796
0.756
0.732
0.752
0.852
0.844
0.748
0.752
0.788
0.776
0.748
0.780
0.824
0.784
0.748
0.776
0.804
0.844
0.792
0.812
0.804
0.772
0.756
0.732
0.800
0.848
0.824
0.744
0.716
0.708
0.684
0.684
0.704
0.656
0.640
0.648
0.652
0.704
0.812
0.768
0.708
0.748
0.812
0.800
0.736
0.760
0.756
0.768
0.772
0.776
0.808
0.764
0.748
0.832
0.824
0.780
0.792
0.872
0.872
0.788
0.804
0.812
0.768
0.732
0.708
0.760
0.888
0.828
0.756
0.808
0.832
0.848
0.736
0.736
0.764
0.856
0.780
0.716
0.712
0.780
0.876
0.772
0.712
0.752
0.808
0.784
0.732
0.696
0.692
0.772
0.884
0.808
0.740
0.692
0.660
0.676
1.052
0.900
0.836
0.800
0.828
0.796
0.796
0.728
0.756
0.720
0.704
0.720
0.752
0.868
0.776
0.716
0.752
0.920
0.812
0.756
0.748
0.788
0.820
0.764
0.740
0.804
0.880
0.776
0.744
0.800
0.856
0.752
0.716
0.784
0.880
0.784
0.708
0.680
0.744
1.088
0.912
0.820
0.736
0.720
0.768
0.856
0.776
0.836
0.756
0.744
0.928
0.904
0.828
0.832
0.844
0.800
0.796
0.776
0.740
0.776
0.788
0.784
0.752
0.668
0.660
0.664
1.000
0.844
0.792
0.740
0.772
0.792
0.800
0.764
0.712
0.712
0.772
0.820
0.752
0.780
0.800
0.780
0.760
0.760
0.784
0.744
0.704
0.700
0.740
0.780
0.796
0.748
0.736
0.756
0.744
0.732
0.748
0.752
0.748
0.748
0.716
0.680
0.676
0.712
0.800
0.772
0.716
0.708
0.748
0.784
0.724
0.728
0.740
0.748
0.728
0.720
0.740
0.884
0.832
0.748
0.692
0.716
0.756
0.776
0.728
0.716
0.768
0.940
0.868
0.752
0.744
0.804
0.804
0.756
0.716
0.680
0.708
0.908
0.824
0.720
0.696
0.772
0.892
0.848
0.744
0.692
0.724
0.824
0.756
0.712
0.688
0.672
0.768
0.936
0.824
0.780
0.712
0.684
0.708
0.828
0.808
0.744
0.696
0.692
0.760
0.804
0.812
0.748
0.704
0.736
0.776
0.760
0.700
0.736
0.764
0.780
0.700
0.676
0.720
0.828
0.796
0.724
0.708
0.792
0.852
0.760
0.744
0.720
0.788
0.832
0.732
0.688
0.700
0.764
0.824
0.760
0.748
0.764
0.784
0.760
0.720
0.700
0.776
0.816
0.748
0.720
0.760
0.764
0.748
0.716
0.764
0.800
0.816
0.764
0.740
0.740
0.788
0.828
0.752
0.724
0.748
0.768
0.784
0.752
0.712
0.692
0.752
0.976
0.888
0.780
0.776
0.724
0.716
0.744
0.788
0.740
0.724
0.788
0.860
0.820
0.796
0.792
0.752
0.708
0.676
0.724
0.992
0.764
0.696
0.680
0.644
0.624
0.628
0.616
0.620
0.696
1.048
0.900
0.824
0.708
0.652
0.620
0.624
0.684
0.968
0.736
0.688
0.732
0.964
0.844
0.748
0.772
0.972
0.912
0.784
0.736
0.792
0.920
0.792
0.724
0.688
0.692
1.068
0.904
0.800
0.744
0.740
0.844
0.860
0.748
0.700
0.676
0.664
0.756
1.060
0.876
0.840
0.784
0.712
0.688
0.712
0.912
0.876
0.752
0.716
0.728
0.856
0.908
0.896
0.856
0.768
0.704
0.688
0.728
0.952
0.844
0.740
0.780
0.836
0.756
0.720
0.748
0.824
0.824
0.744
0.740
0.812
0.832
0.768
0.732
0.828
0.872
0.764
0.724
0.724
0.844
0.892
0.784
0.740
0.808
0.888
0.808
0.744
0.784
0.844
0.784
0.728
0.728
0.800
0.828
0.744
0.720
0.768
0.936
0.816
0.736
0.724
0.796
0.852
0.756
0.724
0.732
0.888
0.880
0.764
0.724
0.728
0.848
0.868
0.744
0.708
0.672
0.700
0.836
0.812
0.824
0.744
0.724
0.772
0.876
0.792
0.740
0.708
0.768
0.880
0.776
0.712
0.704
0.760
0.888
0.772
0.744
0.788
0.796
0.740
0.700
0.760
1.028
0.856
0.776
0.716
0.780
0.824
0.792
0.732
0.700
0.752
0.996
0.800
0.748
0.728
0.824
0.908
0.768
0.728
0.724
0.772
0.856
0.776
0.752
0.756
0.872
0.848
0.768
0.732
0.704
0.740
0.852
0.892
0.804
0.764
0.724
0.716
0.732
0.872
0.924
0.792
0.728
0.752
0.804
0.832
0.744
0.700
0.696
0.764
0.876
0.800
0.728
0.804
0.812
0.796
0.728
0.688
0.712
0.736
0.808
0.792
0.792
0.736
0.696
0.708
0.740
0.800
0.724
0.704
0.748
0.788
0.828
0.776
0.736
0.716
0.720
0.788
0.804
0.808
0.760
0.744
0.716
0.692
0.680
0.728
0.864
0.820
0.728
0.712
0.728
0.796
0.832
0.752
0.772
0.816
0.856
0.804
0.780
0.784
0.728
0.748
0.812
0.800
0.776
0.860
0.848
0.764
0.760
0.808
0.820
0.756
0.732
0.788
0.804
0.804
0.748
0.788
0.780
0.748
0.712
0.752
0.736
0.756
0.720
0.728
0.732
0.772
0.748
0.780
0.724
0.700
0.668
0.652
0.648
0.768
0.912
0.708
0.684
0.728
0.784
0.752
0.712
0.712
0.884
0.860
0.744
0.732
0.844
0.884
0.804
0.732
0.752
0.772
0.832
0.796
0.736
0.796
0.748
0.736
0.752
0.768
0.792
0.800
0.736
0.716
0.748
0.764
0.768
0.732
0.692
0.688
0.720
0.760
0.756
0.704
0.700
0.748
0.748
0.740
0.696
0.736
0.744
0.720
0.708
0.744
0.752
0.788
0.752
0.720
0.692
0.712
0.724
0.732
0.712
0.744
0.740
0.752
0.724
0.692
0.672
0.716
0.768
0.788
0.716
0.724
0.756
0.704
0.696
0.728
0.748
0.724
0.724
0.748
0.756
0.748
0.756
0.708
0.688
0.712
0.720
0.716
0.692
0.752
0.784
0.756
0.736
0.772
0.784
0.740
0.720
0.760
0.784
0.804
0.760
0.824
0.732
0.732
0.752
0.744
0.716
0.760
0.752
0.772
0.720
0.728
0.748
0.776
0.724
0.748
0.780
0.760
0.724
0.764
0.784
0.780
0.720
0.692
0.732
0.736
0.744
0.732
0.808
0.772
0.752
0.752
0.816
0.840
0.764
0.744
0.772
0.780
0.764
0.736
0.780
0.824
0.800
0.740
0.744
0.772
0.796
0.780
0.828
0.908
0.764
0.764
0.872
0.832
0.756
0.728
0.876
0.920
0.792
0.740
0.764
0.724
0.720
0.748
0.788
0.756
0.728
0.732
0.792
0.856
0.764
0.732
0.768
0.820
0.796
0.796
0.764
0.724
0.696
0.696
0.772
0.936
0.856
0.844
0.780
0.712
0.692
0.744
0.816
0.744
0.736
0.768
0.780
0.800
0.768
0.720
0.712
0.748
0.796
0.800
0.756
0.812
0.816
0.836
0.804
0.756
0.776
0.808
0.828
0.752
0.744
0.784
0.816
0.824
0.752
0.776
0.768
0.764
0.788
0.720
0.716
0.684
0.696
0.896
0.864
0.824
0.780
0.724
0.708
0.744
0.760
0.780
0.800
0.744
0.736
0.732
0.768
0.768
0.776
0.776
0.756
0.752
0.712
0.696
0.760
0.844
0.788
0.764
0.796
0.800
0.796
0.728
0.696
0.708
0.744
0.748
0.744
0.804
0.896
0.812
0.784
0.788
0.788
0.752
0.752
0.772
0.820
0.788
0.724
0.724
0.784
0.864
0.820
0.740
0.720
0.736
0.760
0.808
0.764
0.724
0.696
0.732
0.788
0.788
0.740
0.768
0.780
0.756
0.744
0.780
0.856
0.852
0.812
0.844
0.800
0.764
0.776
0.824
0.772
0.788
0.820
0.788
0.744
0.760
0.800
0.768
0.752
0.780
0.760
0.732
0.736
0.780
0.836
0.796
0.728
0.748
0.756
0.772
0.744
0.752
0.784
0.860
0.800
0.764
0.740
0.724
0.696
0.672
0.700
0.852
0.944
0.856
0.752
0.704
0.712
0.764
0.848
0.744
0.740
0.792
0.788
0.752
0.744
0.764
0.828
0.800
0.748
0.712
0.724
0.808
0.920
0.852
0.772
0.720
0.724
0.748
0.764
0.752
0.720
0.704
0.744
0.996
0.848
0.744
0.736
0.756
0.752
0.732
0.736
0.756
0.736
0.728
0.764
0.760
0.784
0.732
0.716
0.716
0.744
0.768
0.728
0.764
0.736
0.704
0.716
0.776
0.820
0.748
0.740
0.784
0.816
0.764
0.792
0.836
0.808
0.736
0.780
0.784
0.764
0.720
0.752
0.812
0.872
0.792
0.740
0.796
0.836
0.864
0.760
0.752
0.776
0.800
0.748
0.696
0.668
0.708
1.184
0.968
0.852
0.728
0.752
0.888
0.896
0.824
0.880
0.832
0.768
0.804
0.916
0.788
0.768
0.864
0.880
0.776
0.720
0.776
0.888
0.864
0.784
0.864
0.908
0.880
0.804
0.848
0.896
0.888
0.820
0.804
0.912
0.908
0.784
0.760
0.876
0.944
0.828
0.768
0.832
0.876
0.824
0.784
0.732
0.696
0.724
1.080
0.924
0.892
0.836
0.812
0.728
0.676
0.648
0.640
0.640
0.700
0.820
0.744
0.716
0.728
0.780
0.696
0.656
0.644
0.636
0.652
0.752
0.840
0.796
0.788
0.716
0.744
0.680
0.668
0.700
0.696
0.716
0.964
0.864
0.776
0.816
0.800
0.772
0.716
0.696
0.744
0.800
0.720
0.716
0.744
0.824
0.868
0.844
0.744
0.732
0.716
0.672
0.640
0.628
0.632
0.692
1.112
0.976
0.960
0.908
0.780
0.788
0.856
0.832
0.780
0.852
1.032
0.820
0.748
0.784
0.892
0.832
0.756
0.788
0.840
0.876
0.780
0.784
0.832
0.916
0.872
0.796
0.792
0.788
0.748
0.820
0.992
0.940
0.888
0.796
0.716
0.752
1.072
0.908
0.880
0.860
0.848
0.868
0.828
0.760
0.784
0.836
0.900
0.820
0.812
0.752
0.716
0.712
0.756
0.928
0.884
0.856
0.740
0.736
0.748
0.844
0.768
0.736
0.780
0.924
0.876
0.824
0.760
0.728
0.708
0.776
0.952
0.800
0.724
0.724
0.740
0.816
0.796
0.736
0.764
0.804
0.804
0.784
0.824
0.836
0.756
0.800
0.848
0.804
0.732
0.712
0.736
0.788
0.892
0.772
0.800
0.800
0.732
0.732
0.760
0.828
0.780
0.728
0.704
0.716
0.768
0.820
0.736
0.756
0.768
0.796
0.760
0.716
0.716
0.752
0.816
0.804
0.760
0.764
0.760
0.760
0.724
0.716
0.688
0.732
0.844
0.868
0.832
0.784
0.764
0.760
0.772
0.760
0.744
0.824
0.868
0.820
0.756
0.792
0.816
0.824
0.728
0.676
0.708
0.896
0.844
0.772
0.792
0.872
0.756
0.720
0.760
0.796
0.780
0.748
0.776
0.824
0.848
0.744
0.752
0.768
0.756
0.716
0.744
0.788
0.780
0.740
0.716
0.792
0.912
0.816
0.776
0.780
0.804
0.780
0.764
0.736
0.760
0.796
0.772
0.804
0.832
0.764
0.768
0.808
0.812
0.728
0.788
0.800
0.756
0.792
0.780
0.760
0.732
0.760
0.796
0.848
0.816
0.844
0.800
0.768
0.832
0.832
0.776
0.752
0.784
0.808
0.764
0.776
0.824
0.788
0.740
0.772
0.812
0.784
0.720
0.712
0.744
0.976
0.760
0.712
0.756
0.836
0.788
0.768
0.752
0.744
0.784
0.864
0.816
0.736
0.788
0.832
0.872
0.748
0.772
0.816
0.768
0.728
0.776
0.864
0.772
0.740
0.752
0.836
0.788
0.736
0.764
0.824
0.920
0.784
0.760
0.784
0.780
0.732
0.748
0.764
0.760
0.708
0.716
0.732
0.720
0.708
0.756
0.804
0.816
0.748
0.784
0.820
0.752
0.760
0.764
0.776
0.732
0.692
0.736
0.876
0.920
0.800
0.820
0.800
0.736
0.752
0.828
0.824
0.752
0.760
0.764
0.772
0.744
0.752
0.800
0.828
0.760
0.756
0.776
0.820
0.800
0.724
0.720
0.764
0.860
0.776
0.700
0.688
0.720
0.692
0.660
0.668
0.668
0.732
0.868
0.864
0.772
0.760
0.776
0.724
0.676
0.652
0.648
0.748
1.132
0.984
0.928
0.808
0.728
0.764
1.088
0.788
0.740
0.800
0.904
0.788
0.740
0.808
0.944
0.904
0.836
0.848
0.816
0.780
0.748
0.784
0.800
0.784
0.808
0.772
0.712
0.744
0.832
0.876
0.776
0.800
0.816
0.816
0.792
0.724
0.736
0.820
0.836
0.764
0.716
0.772
0.836
0.760
0.724
0.760
0.760
0.748
0.788
0.832
0.768
0.712
0.732
0.796
0.784
0.728
0.760
0.836
0.772
0.736
0.752
0.844
0.760
0.748
0.808
0.888
0.808
0.816
0.820
0.768
0.740
0.740
0.892
0.952
0.920
0.840
0.832
0.844
0.836
0.788
0.720
0.772
0.896
0.888
0.868
0.900
0.908
0.776
0.720
0.748
0.828
0.776
0.780
0.848
0.848
0.768
0.796
0.864
0.772
0.772
0.780
0.828
0.792
0.844
0.800
0.808
0.900
0.956
0.900
0.880
0.796
0.748
0.796
0.828
0.856
0.792
0.796
0.884
0.868
0.860
0.792
0.820
0.868
0.888
0.788
0.760
0.792
0.848
0.816
0.756
0.776
0.816
0.892
0.816
0.788
0.832
0.840
0.752
0.736
0.768
0.832
0.792
0.744
0.708
0.784
0.964
0.784
0.740
0.752
0.788
0.768
0.768
0.800
0.748
0.744
0.756
0.764
0.740
0.756
0.760
0.764
0.752
0.732
0.756
0.768
0.736
0.724
0.796
0.832
0.816
0.760
0.776
0.792
0.812
0.728
0.736
0.812
0.872
0.772
0.776
0.792
0.772
0.740
0.748
0.780
0.832
0.768
0.752
0.812
0.816
0.784
0.776
0.776
0.808
0.772
0.820
0.872
0.852
0.776
0.796
0.796
0.772
0.740
0.776
0.812
0.824
0.740
0.688
0.704
0.884
0.868
0.780
0.788
0.852
0.776
0.720
0.728
0.780
0.864
0.804
0.788
0.800
0.804
0.768
0.804
0.852
0.832
0.808
0.816
0.800
0.780
0.836
0.876
0.776
0.760
0.780
0.832
0.752
0.732
0.756
0.772
0.776
0.748
0.780
0.824
0.816
0.768
0.804
0.860
0.804
0.768
0.760
0.800
0.800
0.744
0.752
0.752
0.768
0.720
0.676
0.680
0.748
0.852
0.764
0.780
0.804
0.812
0.760
0.760
0.768
0.744
0.728
0.760
0.756
0.760
0.736
0.712
0.764
0.844
0.772
0.756
0.784
0.816
0.748
0.760
0.780
0.820
0.744
0.764
0.800
0.824
0.772
0.788
0.832
0.832
0.780
0.768
0.792
0.792
0.740
0.744
0.772
0.936
0.780
0.736
0.768
0.896
0.796
0.752
0.784
0.832
0.852
0.760
0.736
0.788
0.840
0.780
0.732
0.772
0.836
0.864
0.772
0.760
0.820
0.832
0.772
0.720
0.752
1.072
0.912
0.796
0.732
0.780
0.892
0.804
0.764
0.908
1.008
0.872
0.760
0.820
0.908
0.792
0.752
0.788
0.916
0.792
0.764
0.912
0.864
0.780
0.824
0.880
0.776
0.800
0.804
0.796
0.736
0.772
0.840
0.784
0.784
0.768
0.760
0.780
0.804
0.708
0.672
0.676
0.768
0.812
0.784
0.832
0.820
0.768
0.764
0.800
0.768
0.756
0.788
0.792
0.748
0.764
0.776
0.756
0.716
0.704
0.736
0.776
0.724
0.744
0.764
0.764
0.716
0.656
0.632
0.636
0.740
0.896
0.700
0.660
0.668
0.648
0.664
0.708
0.712
0.680
0.724
0.784
0.732
0.700
0.712
0.680
0.676
0.688
0.716
0.696
0.688
0.700
0.708
0.692
0.696
0.708
0.716
0.696
0.676
0.716
0.800
0.740
0.712
0.736
0.768
0.760
0.712
0.748
0.788
0.736
0.676
0.688
0.708
0.808
0.808
0.764
0.720
0.736
0.744
0.780
0.700
0.668
0.660
0.656
0.716
1.000
0.804
0.732
0.808
0.840
0.784
0.744
0.856
0.924
0.796
0.724
0.716
0.692
0.652
0.664
0.680
0.816
0.896
0.896
0.876
0.812
0.780
0.848
0.896
0.880
0.772
0.712
0.748
0.904
0.796
0.812
0.884
0.804
0.760
0.796
0.844
0.796
0.768
0.852
0.860
0.760
0.736
0.816
0.928
0.836
0.764
0.808
0.892
0.888
0.848
0.756
0.792
0.868
0.808
0.744
0.812
0.996
0.900
0.772
0.780
0.852
0.944
0.832
0.876
0.884
0.796
0.816
0.808
0.772
0.740
0.808
1.016
0.788
0.752
0.840
0.872
0.788
0.832
0.864
0.824
0.760
0.788
0.872
0.872
0.776
0.840
0.824
0.760
0.792
0.880
0.880
0.772
0.784
0.816
0.812
0.776
0.900
0.948
0.844
0.812
0.820
0.792
0.732
0.728
0.764
0.808
0.776
0.800
0.844
0.832
0.776
0.752
0.804
0.820
0.760
0.768
0.796
0.804
0.752
0.732
0.796
1.044
0.868
0.748
0.852
1.044
0.904
0.844
1.004
0.940
0.804
0.864
0.992
0.844
0.776
1.120
0.988
0.860
0.912
0.856
0.912
0.772
0.732
0.832
1.072
0.844
0.832
0.824
0.780
0.740
0.776
0.848
0.832
0.820
0.936
0.932
0.860
0.904
0.880
0.812
0.892
1.020
0.920
0.844
0.924
0.980
0.900
0.872
0.912
0.860
0.784
0.744
1.172
0.968
0.872
0.896
0.884
0.824
0.760
0.800
0.960
0.832
0.752
0.792
0.940
0.872
0.784
0.800
0.940
0.808
0.732
0.752
0.848
0.884
0.764
0.804
0.936
0.872
0.752
0.712
0.676
0.704
1.036
0.788
0.856
0.892
0.776
0.776
0.820
0.828
0.772
0.864
0.992
0.876
0.808
0.824
0.892
0.816
0.852
0.900
0.828
0.776
0.780
0.792
0.784
0.728
0.756
0.880
0.800
0.800
0.804
0.792
0.708
0.700
0.796
0.948
0.764
0.764
0.784
0.724
0.696
0.744
0.792
0.752
0.776
0.808
0.852
0.796
0.840
0.892
0.788
0.832
0.904
0.884
0.852
0.840
0.824
0.768
0.780
0.836
0.848
0.764
0.720
0.772
0.964
0.828
0.808
0.828
0.844
0.788
0.796
0.804
0.784
0.756
0.788
0.840
0.820
0.792
0.804
0.832
0.752
0.712
0.772
0.812
0.796
0.728
0.744
0.760
0.764
0.720
0.776
0.820
0.788
0.768
0.804
0.772
0.700
0.668
0.668
1.116
0.976
0.900
0.800
0.740
0.800
1.012
0.856
0.788
0.876
0.888
0.800
0.720
0.764
1.124
0.924
0.828
0.820
0.980
0.872
0.796
0.844
0.948
0.840
0.756
0.788
0.980
0.860
0.840
0.868
0.860
0.780
0.804
0.892
0.836
0.756
0.800
0.904
0.828
0.752
0.844
0.980
0.908
0.800
0.800
0.772
0.724
0.680
0.648
0.636
0.624
0.660
1.120
0.920
0.844
0.776
0.848
0.904
0.880
0.784
0.804
0.876
0.904
0.856
0.852
0.912
0.888
0.836
0.840
0.820
0.824
0.808
0.884
0.928
0.780
0.872
0.956
0.860
0.844
0.876
0.876
0.780
0.800
0.884
0.872
0.780
0.872
0.944
0.844
0.868
0.916
0.848
0.804
0.852
0.892
0.792
0.820
0.880
0.828
0.772
0.884
1.008
0.896
0.852
0.904
0.896
0.820
0.784
0.872
0.936
0.796
0.788
0.844
0.876
0.828
0.900
0.960
0.912
0.804
0.820
0.860
0.900
0.820
0.844
0.856
0.756
0.740
0.856
0.936
0.780
0.764
0.828
0.972
0.804
0.780
0.812
0.864
0.796
0.816
0.888
0.864
0.760
0.748
0.792
0.928
0.816
0.832
0.844
0.784
0.720
0.736
0.812
0.808
0.768
0.828
0.908
0.796
0.812
0.812
0.812
0.768
0.848
0.852
0.800
0.736
0.696
0.732
1.140
0.936
0.824
0.916
0.976
0.844
0.780
0.824
0.956
0.840
0.812
0.860
0.832
0.764
0.772
1.100
0.916
0.824
0.788
0.792
0.780
0.736
0.788
0.892
0.920
0.848
0.892
0.820
0.804
0.860
0.972
0.860
0.856
0.824
0.820
0.768
0.816
0.876
0.840
0.772
0.824
0.968
0.828
0.828
1.004
0.976
0.852
0.908
1.000
0.860
0.816
0.924
1.032
0.884
0.820
0.880
0.864
0.776
0.828
1.132
0.880
0.804
0.808
0.828
0.788
0.856
0.888
0.820
0.768
0.824
0.864
0.812
0.728
0.784
0.840
0.800
0.744
0.816
0.820
0.756
0.716
0.764
0.820
0.796
0.716
0.736
0.752
0.724
0.708
0.732
0.764
0.796
0.788
0.804
0.888
0.816
0.760
0.748
0.700
0.668
0.644
0.628
0.644
1.056
0.776
0.808
0.744
0.696
0.672
0.676
1.160
0.988
0.936
0.916
0.796
0.824
0.864
0.828
0.768
0.780
1.000
0.928
0.860
0.768
0.876
0.984
0.784
0.800
0.832
0.860
0.928
0.820
0.776
0.800
0.928
0.796
0.872
0.928
0.840
0.776
0.824
0.880
0.860
0.780
0.808
0.876
0.856
0.760
0.788
0.876
0.856
0.780
0.828
0.884
0.856
0.780
0.808
0.836
0.860
0.812
0.796
0.812
0.768
0.696
0.696
0.868
1.128
0.892
0.804
0.892
0.940
0.816
0.820
0.904
0.824
0.804
0.900
0.900
0.788
0.784
0.980
0.868
0.784
0.748
0.900
0.924
0.848
0.840
0.912
0.892
0.836
0.888
0.936
0.888
0.848
0.884
0.852
0.780
0.864
0.888
0.800
0.788
0.876
0.904
0.804
0.904
0.932
0.920
0.800
0.900
0.920
0.884
0.812
0.844
0.820
0.764
0.728
0.704
1.272
0.996
0.904
0.824
0.916
1.004
0.944
0.848
0.836
0.928
0.924
0.956
0.876
0.812
0.916
0.984
0.844
0.808
0.956
1.020
0.880
0.940
0.980
0.964
0.928
0.876
0.808
0.888
1.012
0.896
0.892
0.948
0.908
0.800
0.840
0.932
0.908
0.820
0.852
0.920
0.832
0.768
0.836
0.896
0.900
0.792
0.744
0.820
0.892
0.824
0.784
0.820
0.868
0.792
0.788
0.820
0.844
0.788
0.744
0.764
0.828
0.864
0.780
0.788
0.836
0.880
0.764
0.752
0.804
0.820
0.748
0.788
0.888
0.852
0.796
0.884
0.892
0.820
0.848
0.908
0.820
0.796
0.840
0.860
0.788
0.832
0.900
0.892
0.792
0.844
0.876
0.840
0.804
0.884
0.836
0.808
0.828
1.052
0.932
0.824
0.840
0.900
0.812
0.800
0.852
0.936
0.824
0.756
0.836
1.060
0.892
0.876
0.948
0.832
0.764
0.788
0.776
0.800
0.756
0.696
0.708
0.696
0.716
0.812
0.904
0.760
0.764
0.772
0.772
0.748
0.816
0.884
0.780
0.840
0.868
0.824
0.788
0.864
0.916
0.864
0.824
0.920
0.864
0.796
0.816
0.800
0.748
0.756
0.728
0.708
0.712
0.732
0.680
0.668
0.708
0.856
0.920
0.772
0.856
0.932
0.768
0.756
0.792
0.948
0.864
0.920
0.880
0.816
0.816
0.984
0.948
0.852
1.016
0.976
0.828
0.856
0.956
0.900
0.836
0.932
0.960
0.832
0.828
0.880
0.824
0.784
0.868
0.884
0.812
0.860
0.944
0.884
0.780
0.812
1.076
0.932
0.808
0.896
0.936
0.844
0.824
0.900
0.932
0.832
0.804
0.880
0.896
0.816
0.852
0.896
0.796
0.744
0.792
0.968
0.828
0.756
0.792
0.864
0.788
0.740
0.768
0.892
0.812
0.760
0.792
0.868
0.828
0.748
0.796
0.828
0.780
0.784
0.844
0.896
0.792
0.800
0.912
0.856
0.760
0.780
0.820
0.836
0.772
0.768
0.872
0.836
0.760
0.796
0.812
0.788
0.800
0.844
0.892
0.792
0.772
0.740
0.752
0.740
0.752
0.728
0.696
0.688
0.688
0.668
0.732
0.772
0.712
0.708
0.732
0.776
0.752
0.776
0.820
0.804
0.752
0.764
0.792
0.768
0.736
0.756
0.836
0.804
0.740
0.756
0.812
0.828
0.768
0.804
0.864
0.804
0.740
0.760
0.848
0.848
0.768
0.820
0.884
0.792
0.784
0.804
0.824
0.760
0.812
0.868
0.832
0.844
0.920
0.856
0.756
0.776
0.832
0.912
0.828
0.940
1.004
0.856
0.884
0.900
0.796
0.844
1.016
0.952
0.820
1.012
1.020
0.908
0.928
0.992
0.904
0.948
0.976
0.836
0.888
0.996
0.892
0.904
0.992
0.864
0.868
0.980
0.928
0.832
0.896
0.952
0.860
0.796
0.920
0.980
0.860
0.784
0.848
0.856
0.792
0.840
0.932
0.816
0.760
0.824
0.944
0.840
0.784
0.868
0.912
0.824
0.820
0.924
0.908
0.784
0.784
0.852
0.852
0.752
0.768
0.872
0.792
0.724
0.708
0.692
0.708
0.752
0.688
0.652
0.664
0.664
0.700
0.700
0.704
0.744
0.736
0.724
0.704
0.740
0.804
0.808
0.732
0.756
0.836
0.940
0.824
0.820
0.856
0.836
0.772
0.772
1.076
0.860
0.760
0.852
0.992
0.868
0.844
1.048
0.964
0.848
0.792
0.864
0.848
0.784
0.912
0.956
0.828
0.768
0.872
0.952
0.792
0.748
0.816
0.956
0.868
0.860
0.968
0.968
0.812
0.836
0.900
0.832
0.792
0.880
0.960
0.844
0.792
0.864
0.912
0.804
0.800
0.884
0.912
0.800
0.828
0.880
0.844
0.780
0.868
0.900
0.824
0.776
0.816
0.852
0.876
0.764
0.768
0.828
0.844
0.764
0.740
0.804
0.916
0.808
0.808
0.944
0.904
0.852
0.872
0.936
0.884
0.844
0.868
0.872
0.784
0.720
0.760
1.112
0.916
0.832
0.856
0.844
0.804
0.736
0.764
0.828
0.900
0.792
0.836
0.992
0.856
0.764
0.792
0.848
0.816
0.776
0.776
0.804
0.784
0.744
0.776
0.800
0.824
0.764
0.740
0.752
0.792
0.752
0.720
0.772
0.880
0.828
0.768
0.836
0.924
0.808
0.792
0.852
0.860
0.796
0.812
0.860
0.824
0.776
0.800
0.872
0.912
0.800
0.744
0.884
1.076
0.900
0.844
0.904
0.864
0.792
0.852
0.940
0.832
0.816
0.904
0.880
0.824
0.748
0.796
1.036
0.944
0.812
0.816
0.860
0.812
0.876
0.948
0.824
0.844
0.940
0.916
0.800
0.836
0.880
0.864
0.792
0.864
0.988
0.820
0.780
0.816
0.884
0.820
0.860
0.848
0.868
0.808
0.836
0.836
0.804
0.764
0.784
0.844
0.852
0.776
0.808
0.836
0.788
0.764
0.844
0.880
0.808
0.800
0.880
0.876
0.812
0.808
0.828
0.764
0.740
0.784
0.892
0.776
0.732
0.780
0.980
0.840
0.844
0.964
0.868
0.820
0.824
0.860
0.856
0.772
0.804
0.908
0.840
0.748
0.684
0.684
0.752
1.136
0.948
0.796
0.732
0.820
0.928
0.824
0.760
0.780
0.840
0.812
0.776
0.812
0.872
0.868
0.816
0.808
0.848
0.864
0.812
0.800
0.860
0.764
0.720
0.700
0.684
0.728
0.768
0.748
0.832
0.936
0.856
0.768
0.780
0.844
0.824
0.760
0.824
0.800
0.772
0.816
0.872
0.784
0.768
0.828
0.912
0.848
0.796
0.848
0.892
0.804
0.852
0.876
0.904
0.820
0.796
0.840
0.840
0.784
0.804
0.856
0.920
0.828
0.848
0.876
0.840
0.812
0.868
0.908
0.860
0.900
0.872
0.864
0.800
0.792
0.904
0.964
0.884
0.820
0.872
0.852
0.804
0.796
0.880
0.960
0.812
0.804
0.900
0.912
0.824
0.836
1.020
0.976
0.860
0.912
0.932
0.824
0.768
0.804
0.960
0.852
0.756
0.736
0.820
1.080
0.844
0.832
0.944
0.900
0.792
0.816
0.832
0.860
0.844
0.788
0.872
0.912
0.800
0.800
0.992
0.928
0.816
0.856
0.932
0.860
0.796
0.888
0.876
0.844
0.856
0.964
0.872
0.796
0.860
0.900
0.804
0.772
0.836
0.876
0.836
0.740
0.848
0.960
0.828
0.804
0.948
0.860
0.788
0.804
0.840
0.848
0.804
0.868
0.920
0.824
0.796
0.852
0.924
0.844
0.808
0.872
0.908
0.804
0.832
0.944
0.912
0.816
0.772
0.840
0.884
0.784
0.740
0.812
0.956
0.848
0.780
0.836
0.796
0.752
0.708
0.764
1.000
0.836
0.776
0.900
0.976
0.888
0.828
0.860
0.848
0.800
0.780
0.828
0.860
0.808
0.808
0.844
0.900
0.836
0.764
0.776
0.828
0.852
0.792
0.776
0.816
0.916
0.860
0.772
0.796
0.860
0.824
0.808
0.820
0.792
0.736
0.812
0.920
0.828
0.820
0.860
0.808
0.744
0.732
0.768
0.896
0.796
0.776
0.808
0.876
0.804
0.800
0.880
0.856
0.840
0.784
0.808
0.836
0.768
0.744
0.820
0.948
0.788
0.816
0.908
0.872
0.800
0.844
0.868
0.784
0.772
0.816
0.908
0.824
0.860
0.860
0.784
0.732
0.732
0.836
0.948
0.840
0.872
0.896
0.820
0.776
0.828
0.860
0.800
0.772
0.816
0.912
0.852
0.852
0.860
0.816
0.756
0.800
0.884
0.848
0.772
0.736
0.784
0.884
0.824
0.756
0.792
0.876
0.852
0.764
0.724
0.760
0.800
0.780
0.756
0.812
0.912
0.812
0.796
0.800
0.772
0.724
0.752
0.836
0.864
0.784
0.784
0.840
0.888
0.772
0.704
0.720
0.856
0.868
0.764
0.784
0.824
0.860
0.756
0.720
0.772
0.904
0.820
0.728
0.712
0.752
0.780
0.776
0.708
0.728
0.888
0.904
0.780
0.772
0.812
0.860
0.792
0.804
0.852
0.952
0.896
0.780
0.788
0.812
0.788
0.800
0.904
0.980
0.836
0.744
0.736
0.880
0.920
0.792
0.816
0.844
0.932
0.852
0.768
0.784
0.816
0.852
0.796
0.796
0.868
0.816
0.816
0.872
0.928
0.784
0.796
0.920
0.928
0.820
0.844
0.848
0.792
0.772
0.880
0.860
0.820
0.840
0.952
0.908
0.792
0.812
0.820
0.792
0.752
0.856
1.140
1.004
0.800
0.724
0.776
0.960
0.828
0.852
1.068
0.860
0.852
0.940
0.884
0.816
0.928
0.944
0.848
0.828
0.932
0.940
0.832
0.892
1.012
0.900
0.872
0.920
0.896
0.788
0.800
0.904
1.116
0.872
0.832
0.904
0.916
0.812
0.812
0.888
0.880
0.792
0.796
0.944
0.940
0.812
0.832
0.864
0.808
0.800
0.848
0.832
0.824
0.864
0.840
0.836
0.852
0.924
0.916
0.820
0.788
0.912
0.936
0.848
0.800
0.896
0.908
0.820
0.820
0.904
0.840
0.784
0.804
0.872
0.804
0.748
0.752
0.792
0.856
0.788
0.732
0.784
0.936
0.832
0.804
0.880
0.888
0.824
0.748
0.768
0.816
0.812
0.792
0.856
0.892
0.804
0.700
0.712
1.156
0.904
0.908
1.008
0.836
0.784
0.832
0.856
0.788
0.816
0.920
0.972
0.832
0.776
0.788
0.940
0.900
0.816
0.848
0.844
0.764
0.708
0.672
0.672
1.288
0.952
0.860
0.796
0.780
0.844
0.856
0.792
0.816
0.864
0.824
0.780
0.768
0.788
0.748
0.712
0.676
0.668
0.728
0.684
0.660
0.652
0.648
0.660
0.720
0.772
0.724
0.760
0.796
0.824
0.748
0.732
0.780
0.812
0.832
0.752
0.740
0.756
0.760
0.740
0.704
0.668
0.684
0.884
0.976
0.884
0.756
0.712
0.760
0.924
0.800
0.720
0.760
0.780
0.716
0.684
0.664
0.712
0.944
0.808
0.692
0.668
0.732
0.812
0.824
0.756
0.796
0.796
0.760
0.724
0.708
0.680
0.656
0.644
0.644
0.652
0.664
0.712
0.676
0.676
0.676
0.712
0.692
0.684
0.692
0.700
0.696
0.668
0.676
0.672
0.672
0.668
0.664
0.664
0.684
0.732
0.740
0.708
0.712
0.744
0.796
0.744
0.708
0.708
0.732
0.748
0.708
0.716
0.740
0.780
0.720
0.724
0.772
0.728
0.692
0.692
0.696
0.748
0.756
0.708
0.700
0.680
0.652
0.636
0.640
0.652
0.700
0.672
0.676
0.756
0.932
0.824
0.744
0.792
0.852
0.792
0.744
0.852
1.008
0.908
0.784
0.768
0.800
0.960
0.824
0.788
0.888
1.016
0.848
0.932
1.016
0.792
0.752
0.744
0.752
0.732
0.728
0.808
0.936
0.804
0.764
0.796
0.848
0.860
0.776
0.784
0.852
0.952
0.900
0.796
0.808
0.884
0.784
0.732
0.784
1.120
0.916
0.836
0.840
0.812
0.784
0.780
0.816
0.848
0.788
0.756
0.708
0.700
0.684
0.656
0.660
0.676
0.740
0.748
0.732
0.780
0.888
0.820
0.728
0.764
0.896
0.884
0.812
0.804
0.840
0.904
0.832
0.780
0.816
0.860
0.780
0.820
1.128
0.964
0.844
0.832
0.800
0.828
0.772
0.828
1.116
0.940
0.844
0.832
0.868
0.804
0.776
0.900
0.972
0.804
0.772
0.872
1.024
0.840
0.908
0.936
0.880
0.820
0.832
0.896
0.816
0.792
0.944
0.972
0.808
0.836
0.892
0.880
0.792
0.872
0.924
0.864
0.788
0.824
0.896
0.820
0.816
0.916
0.908
0.824
0.844
0.860
0.864
0.816
0.748
0.768
0.872
0.904
0.776
0.820
0.888
0.896
0.832
0.840
0.828
0.828
0.760
0.780
0.888
0.960
0.860
0.768
0.792
0.868
0.784
0.764
0.828
0.880
0.828
0.776
0.792
0.864
0.856
0.864
0.872
0.896
0.856
0.824
0.856
0.904
0.812
0.736
0.716
0.760
1.132
0.912
0.908
0.968
0.948
0.912
0.800
0.776
0.776
0.900
0.848
0.868
1.004
0.936
0.848
0.836
0.900
0.920
0.832
0.924
0.944
0.896
0.772
0.816
0.920
0.908
0.832
0.936
0.940
0.836
0.768
0.892
1.028
0.856
0.840
0.912
0.808
0.816
0.880
0.908
0.816
0.824
0.816
0.748
0.748
0.784
1.028
0.808
0.820
1.004
0.892
0.768
0.756
0.812
0.820
0.740
0.796
1.108
1.008
0.892
0.892
0.868
0.772
0.804
1.152
0.896
0.904
0.980
0.932
0.832
0.864
0.872
0.824
0.776
0.824
0.888
0.800
0.708
0.716
1.232
0.984
0.892
0.880
0.840
0.784
0.776
0.788
0.896
0.832
0.868
0.896
0.844
0.784
0.708
0.680
0.684
0.668
0.692
0.728
0.688
0.648
0.660
0.644
0.652
0.672
0.660
0.632
0.620
0.700
1.100
0.952
0.916
0.836
0.740
0.760
0.808
0.856
0.788
0.856
1.056
0.920
0.852
0.876
0.852
1.012
0.888
0.860
0.828
0.816
0.976
1.024
0.868
0.928
0.912
0.864
0.804
0.820
0.888
0.896
0.784
0.828
0.844
0.856
0.832
0.872
0.892
0.812
0.804
0.860
0.840
0.792
0.780
0.856
0.904
0.792
0.812
0.884
0.924
0.804
0.836
0.940
0.920
0.836
0.880
0.920
0.816
0.828
0.980
0.944
0.780
0.784
0.816
0.880
0.824
0.840
0.932
0.944
0.848
0.872
0.884
0.812
0.800
0.992
1.036
0.888
0.916
0.932
0.836
0.804
0.892
1.092
0.900
0.948
0.948
0.888
0.912
0.908
0.856
0.892
0.996
0.840
0.864
0.872
0.892
0.796
0.860
0.900
0.820
0.808
0.896
0.868
0.788
0.764
0.788
0.848
0.848
0.776
0.776
0.828
0.980
0.884
0.844
0.880
0.868
0.776
0.748
0.820
0.984
0.836
0.800
0.880
0.996
0.812
0.820
0.960
0.928
0.792
0.800
0.892
0.896
0.828
0.844
0.900
0.892
0.828
0.996
0.964
0.844
0.864
0.932
0.872
0.812
0.896
0.888
0.836
0.808
0.820
0.752
0.696
0.676
0.696
0.820
1.128
0.880
0.908
0.956
0.864
0.768
0.808
0.956
0.808
0.752
0.796
0.896
0.816
0.816
0.940
0.928
0.800
0.896
0.968
0.832
0.788
0.836
0.988
0.876
0.836
0.820
0.788
0.832
1.148
0.956
0.892
0.960
0.968
0.888
0.908
0.932
0.888
0.900
0.916
0.948
0.840
0.852
1.044
0.984
0.884
0.920
0.916
0.840
0.876
0.912
0.880
0.820
0.896
0.972
0.868
0.892
0.896
0.836
0.788
0.812
0.884
0.836
0.800
0.852
0.888
0.832
0.776
0.796
0.848
0.924
0.812
0.856
0.880
0.824
0.764
0.788
1.032
0.884
0.808
0.820
1.112
0.864
0.796
0.860
0.996
0.852
0.888
1.052
1.000
0.936
0.936
0.888
0.764
0.760
0.820
0.900
0.844
0.872
0.996
0.828
0.844
0.964
0.880
0.784
0.796
0.836
0.832
0.812
0.836
0.864
0.768
0.724
0.736
0.844
0.848
0.772
0.820
0.964
0.800
0.764
0.780
0.880
0.876
0.788
0.796
0.824
0.804
0.788
0.824
0.908
0.820
0.800
0.844
0.816
0.768
0.768
0.828
0.908
0.820
0.780
0.804
0.832
0.792
0.772
0.796
0.928
0.936
0.812
0.804
0.864
0.764
0.716
0.696
0.744
0.876
0.844
0.812
0.896
0.956
0.904
0.860
0.780
0.768
0.804
1.068
0.836
0.776
0.852
0.908
0.760
0.712
0.708
0.876
1.084
0.844
0.768
0.756
0.792
0.768
0.788
1.080
0.840
0.736
0.720
0.872
0.816
0.724
0.752
0.780
0.748
0.784
0.828
0.744
0.720
0.692
0.704
0.744
0.744
0.820
0.892
0.832
0.788
0.824
0.844
0.800
0.752
0.800
0.844
0.816
0.776
0.740
0.848
0.992
0.800
0.744
0.852
1.100
0.840
0.740
0.736
1.196
0.972
0.864
0.780
0.800
1.196
0.944
0.828
0.872
0.880
0.832
0.896
0.964
0.820
0.876
0.932
0.920
0.800
0.816
0.964
0.980
0.844
0.864
0.944
0.832
0.820
1.164
0.856
0.820
0.892
1.008
0.936
0.948
0.896
0.756
0.716
0.820
1.252
0.956
0.832
0.976
1.012
0.896
0.900
0.936
0.880
0.852
0.800
0.756
0.812
0.948
0.844
0.748
0.940
1.152
0.968
0.868
0.856
0.856
0.840
0.756
0.724
0.764
0.908
0.904
0.808
0.872
0.932
0.844
0.784
0.796
0.816
0.856
0.780
0.808
0.848
0.836
0.788
0.840
0.960
0.932
0.864
0.804
0.832
0.856
0.860
0.836
0.892
1.048
0.912
0.820
0.812
0.904
0.848
0.800
0.864
0.876
0.852
0.804
0.844
0.888
0.844
0.780
0.788
0.852
0.916
0.784
0.728
0.804
1.144
0.872
0.760
0.784
0.856
0.844
0.784
0.836
1.156
0.856
0.740
0.696
0.692
0.728
0.788
0.792
0.776
0.712
0.692
0.712
0.768
1.068
0.892
0.856
1.004
0.940
0.832
0.856
0.916
0.904
0.816
0.812
1.144
0.952
0.860
0.864
1.024
0.996
0.956
0.984
1.020
0.960
0.960
0.916
0.880
0.916
1.016
0.980
0.900
0.896
0.804
0.836
1.040
0.872
0.780
0.820
0.892
0.796
0.792
0.968
0.916
0.796
0.848
0.856
0.776
0.732
0.748
0.816
0.776
0.756
0.808
0.876
0.824
0.764
0.832
1.012
0.852
0.820
0.848
0.860
0.716
0.704
0.728
0.808
0.872
0.860
0.860
0.816
0.748
0.796
1.080
0.940
0.892
0.876
0.800
0.760
0.768
0.816
0.784
0.784
0.856
0.944
0.832
0.852
0.880
0.844
0.764
0.768
0.792
0.812
0.768
0.760
0.780
0.856
0.784
0.768
0.804
0.856
0.776
0.732
0.772
0.920
0.920
0.868
0.848
0.820
0.776
0.836
0.996
0.904
0.792
0.816
0.892
0.880
0.804
0.992
0.956
0.856
0.820
0.880
0.844
0.784
0.744
0.828
1.128
0.872
0.924
1.040
0.880
0.824
0.888
1.020
0.952
0.972
0.852
0.800
0.884
1.172
0.876
0.884
0.912
0.864
0.900
1.108
0.980
0.896
0.928
0.932
0.804
0.792
0.844
1.000
0.868
0.932
1.020
0.896
0.876
0.968
0.860
0.776
0.788
0.812
0.812
0.796
1.036
1.020
0.836
0.780
0.844
0.916
0.860
0.876
0.916
0.824
0.820
0.852
0.844
0.820
0.804
0.908
0.908
0.812
0.876
0.936
0.792
0.792
0.812
0.844
0.808
0.812
1.144
0.944
0.856
0.892
0.880
0.796
0.776
0.860
0.972
0.808
0.820
0.932
0.824
0.824
0.836
0.820
0.764
0.800
0.832
0.860
0.760
0.792
0.844
0.860
0.784
0.816
0.828
0.788
0.824
0.804
0.808
0.796
0.916
0.912
0.824
0.916
0.988
0.880
0.784
0.788
0.892
0.792
0.772
0.840
1.012
0.816
0.780
0.808
0.928
0.852
0.868
0.956
0.852
0.804
0.960
0.908
0.840
0.832
0.956
0.956
0.880
1.024
0.996
0.856
0.916
0.976
0.856
0.800
0.856
0.996
0.840
0.836
0.904
0.876
0.820
0.888
0.952
0.816
0.828
0.896
0.960
0.820
0.848
0.992
0.856
0.796
0.872
1.044
0.844
0.804
0.872
0.840
0.796
0.836
0.884
0.792
0.804
1.020
0.992
0.840
0.800
0.904
1.052
0.848
0.820
0.996
0.888
0.792
0.840
0.888
0.888
0.784
0.832
0.880
0.820
0.824
0.868
0.864
0.804
0.740
0.812
1.024
0.832
0.760
0.836
0.820
0.752
0.704
0.688
0.680
0.788
0.932
0.748
0.716
0.768
0.736
0.696
0.676
0.716
1.108
0.884
0.768
0.764
0.816
0.884
0.792
0.748
0.824
0.948
0.904
0.804
0.836
0.888
0.832
0.788
0.840
0.940
0.884
0.836
0.792
0.800
0.848
0.792
0.720
0.724
1.272
0.992
0.864
0.772
0.856
0.964
0.828
0.788
0.904
0.984
0.824
0.748
0.760
0.792
1.060
0.848
0.876
0.988
0.956
0.916
0.904
0.856
0.884
0.896
0.908
0.860
0.852
0.820
0.876
0.932
0.868
0.788
0.772
0.896
0.980
0.880
0.824
0.824
0.860
0.796
0.844
0.888
0.844
0.848
0.924
0.904
0.836
0.852
0.848
0.856
0.820
0.840
0.984
0.916
0.804
0.752
0.796
1.176
0.952
0.852
0.880
0.816
0.832
0.920
0.876
0.764
0.792
0.912
0.916
0.828
0.900
0.916
0.872
0.792
0.848
0.936
0.820
0.796
1.072
0.932
0.812
0.828
0.944
0.904
0.792
0.816
0.884
0.904
0.880
0.900
0.952
0.824
0.788
0.832
1.036
0.940
0.828
0.788
0.976
1.036
0.856
0.896
0.964
0.904
0.828
0.784
0.924
0.996
0.820
0.820
0.988
0.852
0.788
0.852
0.868
0.812
0.788
0.876
0.964
0.816
0.780
0.876
0.976
0.808
0.804
0.848
0.880
0.796
0.756
0.808
0.964
0.828
0.812
1.036
0.988
0.884
0.936
0.980
0.956
0.860
0.876
0.936
0.868
0.864
1.196
0.988
0.880
0.848
0.908
0.860
0.808
1.012
0.988
0.844
0.812
0.756
0.716
0.704
0.744
1.092
0.820
0.852
0.848
0.824
0.812
0.860
0.852
0.776
0.804
0.844
0.820
0.796
0.836
0.848
0.820
0.824
0.860
0.872
0.832
0.892
0.956
0.872
0.800
0.804
0.796
0.764
0.708
0.676
0.688
0.744
0.692
0.716
0.704
0.684
0.684
0.720
0.780
0.804
0.740
0.700
0.728
0.768
0.776
0.756
0.764
0.784
0.744
0.692
0.648
0.648
0.664
0.644
0.624
0.620
0.636
0.828
0.696
0.832
1.012
1.008
0.936
0.916
0.988
0.872
0.780
0.908
1.072
0.868
0.840
1.004
0.904
0.824
0.896
0.968
0.796
0.828
0.868
0.784
0.776
0.836
1.100
0.880
0.780
0.816
0.916
0.908
0.792
0.780
0.944
1.080
0.956
0.924
0.884
0.888
0.920
0.880
0.832
0.852
0.872
0.876
0.892
1.008
0.972
0.904
0.792
0.816
0.860
1.004
0.824
0.772
0.844
1.204
0.936
0.840
0.884
0.916
0.844
0.880
0.920
0.880
0.844
0.812
0.816
0.784
0.852
0.956
0.908
0.840
0.860
0.904
0.864
0.844
0.860
0.896
0.860
0.784
0.828
0.848
0.768
0.728
0.704
0.712
1.136
0.896
0.796
0.732
0.692
0.676
0.712
0.720
0.716
0.940
1.020
0.872
0.756
0.792
0.860
0.824
0.728
0.704
0.712
0.912
0.976
0.768
0.736
0.724
0.780
0.756
0.732
0.728
0.712
0.772
0.836
0.776
0.768
0.764
0.780
0.748
0.752
0.784
0.832
0.796
0.848
0.932
0.936
0.832
0.848
0.848
0.848
0.856
0.872
0.844
0.876
0.940
0.936
0.928
0.916
0.880
0.820
0.876
0.884
0.828
0.820
0.928
0.992
0.892
0.804
0.820
0.876
0.876
0.776
0.928
1.096
0.856
0.776
0.828
1.148
0.904
0.828
0.908
1.000
0.904
0.776
0.760
0.780
1.080
0.820
0.864
1.032
0.936
0.848
0.900
0.944
0.876
0.852
0.876
0.840
0.800
0.864
0.916
0.868
0.820
0.796
0.800
0.908
0.864
0.824
0.920
1.020
0.892
0.864
0.868
0.832
0.788
0.852
1.016
0.900
0.800
0.772
0.796
0.992
0.844
0.820
0.912
0.948
0.956
0.976
0.776
0.764
0.792
0.888
0.800
0.772
1.208
1.024
0.896
0.956
0.960
0.900
0.904
0.940
0.920
0.780
0.808
0.960
0.848
0.780
0.812
0.888
0.960
0.868
1.032
1.004
0.872
0.976
0.920
0.844
0.856
0.896
0.860
0.816
0.852
0.932
0.920
0.860
1.016
0.916
0.804
0.744
0.732
0.892
1.160
0.852
0.924
0.984
0.840
0.896
0.868
0.812
0.784
0.812
0.856
0.828
0.832
0.944
0.892
0.956
1.052
0.932
0.796
0.784
0.828
0.932
0.888
0.968
1.000
0.936
0.944
0.936
0.880
0.896
1.152
0.968
0.864
0.768
0.732
0.772
1.268
0.916
0.812
0.872
0.932
0.792
0.876
1.016
0.900
0.988
0.928
0.848
0.892
0.856
0.832
0.760
0.788
1.228
0.928
0.864
0.948
0.908
0.832
0.984
1.016
0.876
0.864
0.940
0.832
0.820
0.952
0.920
0.848
0.856
0.836
0.812
0.868
0.804
0.724
0.728
0.744
0.740
0.700
0.656
0.640
0.660
0.680
0.988
0.832
0.724
0.704
0.740
0.804
0.768
0.796
0.924
0.796
0.724
0.760
1.164
0.932
0.776
0.776
0.956
0.912
0.852
0.964
0.980
0.916
0.912
0.844
0.880
0.900
1.108
0.952
0.800
0.788
0.840
1.156
1.024
1.048
0.980
0.932
0.980
1.004
0.948
0.932
0.888
0.820
0.760
0.756
0.812
1.184
0.912
0.872
0.996
0.832
0.796
0.796
0.780
0.748
0.704
0.716
0.680
0.696
0.700
0.704
0.724
0.728
0.760
0.744
0.716
0.720
0.712
0.692
0.672
0.652
0.684
1.108
0.892
0.832
0.776
0.792
0.884
0.824
0.932
0.844
0.756
0.724
0.768
1.232
1.000
0.916
0.876
0.916
0.832
0.784
0.936
1.060
0.932
0.892
0.928
0.904
0.816
0.872
0.868
0.848
0.872
0.876
0.824
0.892
0.920
0.900
0.844
0.872
0.880
0.856
0.816
0.908
0.904
0.848
0.864
0.980
0.860
0.792
0.840
0.920
0.836
0.860
0.916
0.904
0.820
0.788
0.872
0.892
0.824
0.848
0.872
0.896
0.832
0.868
0.948
0.820
0.780
0.940
0.924
0.812
0.776
0.864
1.100
0.852
0.924
1.040
0.904
0.812
0.768
0.768
0.836
0.996
0.884
0.956
1.012
0.896
0.832
0.920
0.932
0.788
0.696
0.664
0.680
1.408
1.104
1.060
0.808
0.736
0.788
1.196
0.916
0.748
0.768
1.160
0.880
0.808
0.996
1.012
0.984
0.948
0.896
0.848
0.868
0.844
0.808
0.824
0.900
0.908
0.932
0.864
0.796
0.992
0.820
0.744
0.768
0.884
0.936
0.836
0.880
0.928
0.828
0.872
0.996
0.924
0.884
0.932
0.936
0.936
0.824
0.768
0.816
1.144
0.928
0.916
0.916
0.852
0.816
0.836
0.932
0.988
0.868
0.936
1.068
0.932
0.812
0.844
0.868
0.900
0.824
0.792
1.216
0.944
0.840
0.892
1.048
0.848
0.816
0.776
0.792
0.776
0.772
0.772
0.760
0.692
0.688
0.680
0.700
0.752
0.692
0.692
0.728
0.796
0.724
0.692
0.696
0.696
0.704
0.696
0.692
0.688
0.692
0.708
0.768
0.740
0.708
0.696
0.728
0.832
0.836
0.800
0.740
0.748
0.760
0.764
0.764
0.768
0.808
0.820
0.764
0.824
0.912
0.884
0.784
0.784
0.796
0.808
0.756
0.776
0.824
0.796
0.740
0.768
0.776
0.772
0.724
0.732
0.824
0.788
0.756
0.888
0.952
0.856
0.760
0.812
0.968
0.988
0.820
0.764
0.812
0.968
0.888
0.964
1.012
0.900
0.756
0.692
0.684
0.732
1.164
0.832
0.896
1.120
1.008
1.016
1.052
1.004
0.904
0.924
0.960
0.928
0.828
0.800
0.908
0.984
0.904
1.020
0.988
0.952
0.820
0.796
0.816
0.824
0.804
0.896
1.252
1.020
0.940
0.968
0.928
0.816
0.916
0.920
0.948
0.928
1.000
0.872
0.820
0.840
1.224
1.076
0.952
0.820
0.740
0.772
1.228
0.988
0.948
1.108
1.008
1.020
0.996
0.900
0.924
0.960
0.964
0.904
0.860
0.980
0.984
0.860
0.900
1.052
0.832
0.792
0.964
0.892
0.788
0.828
0.836
0.760
0.736
0.792
0.904
0.784
0.716
0.684
0.664
0.696
1.212
1.020
0.972
0.852
0.984
1.060
0.988
0.956
0.928
0.936
0.912
0.860
0.812
0.816
0.760
0.756
0.820
0.916
0.952
0.872
1.060
1.044
1.040
0.908
0.808
0.768
0.824
1.040
0.920
0.864
0.828
0.912
1.028
0.972
0.904
0.768
0.780
0.868
1.144
0.908
1.008
1.080
0.972
0.968
0.984
0.896
0.756
0.704
0.708
0.844
0.768
1.172
0.832
0.908
1.024
0.928
1.092
0.948
0.900
1.004
1.052
0.820
0.804
0.860
1.024
0.864
0.876
0.964
0.904
1.008
0.920
0.844
0.764
0.828
1.184
0.944
0.900
0.960
1.016
0.892
0.924
0.852
0.812
0.816
1.224
1.056
0.888
0.776
0.772
0.844
0.860
0.752
0.700
0.712
0.852
0.716
0.696
0.716
0.752
0.796
0.764
0.736
0.752
0.712
0.724
0.720
0.744
0.744
0.716
0.728
0.752
0.792
0.764
0.712
0.728
0.736
0.732
0.708
0.684
0.692
0.720
0.724
0.700
0.744
1.152
0.916
0.868
0.856
0.856
0.788
0.820
0.860
0.836
0.776
0.816
0.880
0.868
0.848
0.948
0.900
0.856
0.844
0.824
0.832
0.748
0.720
0.724
0.760
0.760
0.792
0.860
0.856
0.772
0.804
0.824
0.808
0.756
0.776
0.780
0.832
0.796
0.816
0.860
0.784
0.736
0.752
0.744
0.728
0.724
0.744
0.712
0.724
0.736
0.752
0.740
0.736
0.764
0.752
0.716
0.728
0.752
0.816
0.760
0.784
0.868
0.828
0.768
0.824
0.824
0.856
0.788
0.836
0.828
0.812
0.780
0.868
0.960
0.888
0.784
0.804
0.820
0.828
0.840
0.948
1.008
0.856
0.792
0.808
0.872
0.812
0.824
1.092
0.928
0.820
0.848
0.948
0.856
0.852
1.124
0.932
0.912
0.964
0.948
0.876
0.932
0.928
0.844
0.816
1.096
0.904
0.808
0.864
1.004
0.864
0.804
0.912
1.000
0.912
0.812
0.816
0.868
0.792
0.776
0.928
0.992
0.796
0.724
0.712
0.784
0.920
0.768
0.812
1.152
0.892
0.788
1.080
0.940
0.832
0.804
0.848
0.828
0.780
0.836
1.132
0.800
0.736
0.788
1.144
0.756
0.692
0.680
0.764
0.896
0.928
0.760
0.740
0.844
0.792
0.792
0.956
0.920
0.868
0.844
0.764
0.776
0.768
0.772
0.776
0.756
0.760
0.772
0.844
0.828
0.868
0.828
0.812
0.836
0.844
0.808
0.768
0.760
0.756
0.796
0.864
0.840
0.892
0.936
0.928
0.788
0.716
0.692
0.712
1.128
0.812
0.844
1.028
1.008
0.944
0.840
0.808
0.788
0.788
0.764
0.776
0.772
0.764
0.840
0.872
0.760
0.724
0.712
0.736
0.736
0.708
0.740
0.840
0.956
0.796
0.852
0.908
0.920
0.816
0.876
0.884
0.800
0.804
0.832
0.856
0.788
0.800
0.836
0.908
0.860
0.768
0.768
0.792
0.804
0.804
0.772
0.800
0.920
0.916
0.840
0.780
0.804
0.852
0.812
0.764
0.784
0.840
0.892
0.764
0.720
0.740
0.784
0.804
0.788
0.856
0.952
0.992
0.828
0.788
0.804
0.920
0.852
0.864
0.976
0.868
0.764
0.796
0.880
0.956
0.876
0.804
0.876
0.988
0.952
0.912
0.940
1.012
0.916
0.892
0.960
0.936
0.820
0.836
0.924
0.984
0.864
0.860
0.848
0.896
0.824
0.784
0.788
0.896
0.932
0.824
0.860
0.928
0.940
0.852
0.868
0.852
0.884
0.800
0.732
0.736
0.856
1.100
0.868
0.892
1.096
0.864
0.872
0.964
0.864
0.772
0.840
0.936
0.884
0.872
1.020
1.016
0.844
0.808
0.916
0.956
0.840
0.864
1.140
0.980
0.896
0.896
0.932
0.864
0.780
0.780
1.104
0.896
0.816
0.896
1.016
0.940
0.888
0.988
1.016
0.864
0.876
0.872
0.784
0.724
0.696
0.700
0.764
0.872
0.724
0.684
0.660
0.688
0.816
1.008
0.776
0.796
0.888
0.860
0.776
0.776
0.792
0.852
0.788
0.800
1.060
1.056
0.832
0.800
0.780
0.768
0.752
0.772
0.848
0.864
0.820
0.876
1.020
0.892
0.880
0.960
0.936
0.852
0.816
0.912
0.872
0.808
0.780
0.852
1.292
0.996
0.892
1.064
1.068
0.972
0.920
0.944
0.968
1.008
0.900
0.780
0.828
0.948
0.956
0.920
1.180
0.948
0.944
0.960
0.916
0.892
0.968
0.992
0.888
0.884
0.964
1.056
0.836
0.780
0.968
1.012
0.840
0.744
0.736
0.896
1.124
0.800
0.808
0.904
0.900
0.780
0.828
0.860
0.820
0.756
0.768
0.816
0.864
0.800
0.804
0.792
0.728
0.692
0.696
0.740
0.992
0.844
0.804
0.800
1.152
0.928
0.856
0.776
0.756
0.780
0.832
0.800
0.816
0.852
0.896
0.816
0.812
0.768
0.760
0.716
0.736
0.756
0.804
0.744
0.768
0.772
0.804
0.732
0.696
0.676
0.656
0.644
0.632
0.624
0.612
0.616
0.620
0.660
0.684
0.696
0.700
0.696
0.692
0.668
0.648
0.640
0.624
0.612
0.612
0.612
0.612
0.628
0.672
0.656
0.656
0.696
0.828
0.752
0.724
0.776
0.836
0.768
0.756
0.804
0.812
0.764
0.776
0.780
0.816
0.752
0.760
0.912
0.960
0.832
0.848
0.840
0.796
0.780
0.916
0.956
0.816
0.752
0.836
1.000
0.816
0.828
0.856
0.892
0.788
0.816
0.980
0.856
0.824
0.920
0.960
0.800
0.820
0.896
0.832
0.840
0.972
0.848
0.836
0.920
0.860
0.840
0.904
0.880
0.856
1.004
0.952
0.824
0.856
0.988
0.980
0.864
0.908
0.952
0.864
0.856
0.916
0.880
0.816
0.968
0.908
0.788
0.796
1.136
0.916
0.904
0.960
0.912
0.840
0.752
0.776
1.196
0.952
0.876
0.896
0.916
0.812
0.832
0.884
0.884
1.028
0.960
0.844
0.872
0.948
0.904
0.860
1.028
0.976
0.872
0.876
1.084
0.924
0.876
0.904
0.920
0.860
0.988
1.036
0.884
0.908
0.996
0.916
0.816
0.852
0.972
0.892
0.812
0.868
0.884
0.880
0.880
0.936
0.892
0.860
1.044
0.904
0.768
0.844
0.932
0.888
0.840
0.944
0.904
0.816
0.828
0.852
0.800
0.824
0.888
0.860
0.816
0.836
0.816
0.776
0.772
0.868
1.000
0.916
0.864
0.984
0.908
0.796
0.760
0.776
0.824
0.936
0.828
0.956
1.116
0.940
0.936
0.908
0.808
0.764
0.760
0.796
0.872
0.796
0.800
0.972
0.868
0.860
0.964
0.884
0.804
0.856
0.992
0.848
0.848
0.852
0.852
0.804
0.824
1.032
0.932
0.796
0.816
0.852
0.808
0.800
0.908
0.900
0.816
0.876
0.976
0.864
0.896
1.004
0.868
0.804
0.852
1.000
0.888
0.824
1.040
0.968
0.828
0.864
0.972
0.944
0.824
0.872
0.964
0.768
0.724
0.748
0.860
0.820
0.728
0.760
0.832
0.896
0.836
0.756
0.696
0.668
0.652
0.664
0.712
0.844
0.812
0.736
0.744
0.796
0.892
0.824
0.720
0.744
1.000
0.868
0.788
0.896
0.984
0.848
0.864
0.864
0.856
0.784
0.780
0.828
0.928
0.852
0.860
0.820
0.788
0.872
0.884
0.840
0.856
0.896
0.912
0.824
0.796
0.820
0.880
0.848
0.848
0.908
0.816
0.804
0.824
0.848
0.832
0.864
0.868
0.788
0.768
0.808
0.864
0.824
0.784
0.812
0.936
0.820
0.808
0.884
0.976
0.860
0.868
0.888
0.828
0.772
0.792
1.020
0.812
0.824
0.940
0.924
0.832
0.868
0.880
0.796
0.812
0.956
0.872
0.816
0.844
0.848
0.804
0.844
0.964
0.876
0.844
0.964
0.884
0.812
0.852
0.948
0.864
0.900
0.920
0.868
0.860
0.924
1.012
0.816
0.760
0.796
0.884
0.768
0.776
0.764
0.764
0.756
0.772
0.792
0.720
0.692
0.716
0.768
0.900
0.832
0.828
0.892
0.908
0.812
0.848
0.880
0.820
0.784
0.884
1.060
0.864
0.836
0.848
0.812
0.768
0.856
1.168
0.940
0.948
0.888
0.832
0.904
1.028
0.848
0.940
1.000
0.860
0.860
1.012
0.880
0.812
0.888
0.936
0.816
0.832
0.892
0.860
0.816
0.824
0.832
0.816
0.796
0.944
0.888
0.816
0.844
0.896
0.804
0.856
0.860
0.828
0.788
0.852
1.008
0.840
0.888
0.928
0.804
0.764
0.816
1.008
0.848
0.852
0.832
0.792
0.884
0.952
0.820
0.840
0.908
0.784
0.728
0.720
0.820
1.100
0.864
0.820
0.828
0.852
0.800
0.788
0.820
0.740
0.744
0.716
0.748
0.940
0.864
0.928
0.940
0.864
0.848
0.904
0.884
0.788
0.804
0.908
0.908
0.784
0.712
0.720
1.144
0.896
0.776
0.772
1.108
0.976
0.932
0.948
0.884
0.828
0.868
0.920
0.920
0.864
0.920
0.960
0.864
0.884
0.996
0.948
0.820
0.844
1.016
0.940
0.812
0.828
1.116
0.904
0.900
0.932
0.976
0.892
0.896
0.892
0.896
0.884
0.812
0.872
0.852
0.796
0.888
1.108
0.928
0.952
1.000
0.924
0.896
0.940
0.916
0.848
0.908
0.988
0.860
0.784
0.796
0.984
0.928
0.808
0.812
0.976
0.916
0.852
0.960
0.860
0.792
0.816
0.856
0.852
0.840
0.996
0.940
0.856
0.872
0.900
0.900
0.848
0.916
0.916
0.880
0.796
0.816
0.888
0.904
0.816
0.872
0.868
0.792
0.728
0.732
0.932
1.020
0.796
0.828
0.900
0.840
0.800
0.824
0.848
0.816
0.848
0.860
0.864
0.800
0.836
0.760
0.756
0.916
0.940
0.836
0.844
0.800
0.764
0.752
0.712
0.684
0.676
0.756
1.124
0.872
0.736
0.752
1.156
0.968
0.796
0.796
0.832
0.788
0.732
0.780
1.208
0.956
0.776
0.852
0.936
0.808
0.788
1.156
0.920
0.880
0.972
0.960
0.844
0.796
0.920
1.012
0.912
0.960
0.928
0.908
0.924
0.932
0.872
0.884
0.980
0.996
0.852
0.892
0.944
0.856
0.816
0.956
0.956
0.832
0.896
0.932
0.832
0.828
0.900
0.900
0.804
0.840
0.844
0.792
0.788
0.828
1.084
0.852
0.932
0.904
0.884
0.808
0.832
0.860
0.812
0.868
0.924
0.828
0.824
0.948
0.924
0.868
0.908
0.968
0.876
0.768
0.744
0.808
0.916
0.824
0.884
0.912
0.924
0.880
0.952
0.904
0.812
0.812
0.784
0.776
0.736
0.768
1.220
0.980
0.884
0.948
0.944
0.824
0.704
0.676
0.692
1.000
0.792
0.720
0.736
0.760
1.156
0.972
0.924
0.956
0.932
0.880
0.856
0.832
0.760
0.732
0.844
1.124
0.844
0.852
0.996
0.908
0.828
0.872
0.976
0.868
0.820
0.908
0.980
0.952
0.944
0.824
0.848
0.844
0.792
0.820
1.196
0.980
0.984
0.956
0.848
0.764
0.800
1.172
0.912
0.944
1.068
0.968
0.972
0.988
0.884
0.864
0.920
0.924
0.836
0.900
0.948
0.832
0.852
0.896
0.868
0.796
0.860
0.900
0.812
0.836
0.888
0.888
0.828
0.904
0.908
0.768
0.800
0.824
0.848
0.872
1.032
0.940
0.864
0.944
0.876
0.812
0.864
1.000
0.796
0.824
0.872
0.956
0.968
0.924
0.800
0.788
0.884
0.864
0.752
0.724
0.796
1.124
0.864
0.848
0.888
0.844
0.872
0.916
0.864
0.808
0.844
0.844
0.792
0.872
0.832
0.884
0.848
0.784
0.816
0.828
0.800
0.748
0.836
1.068
0.772
0.712
0.732
1.132
0.968
0.920
0.840
0.872
0.792
0.716
0.688
0.680
0.840
1.264
1.088
1.072
1.004
0.896
0.816
0.844
0.976
0.976
0.936
0.908
0.852
0.780
0.812
0.900
0.928
0.916
0.912
0.848
0.860
0.900
0.844
0.800
0.816
0.888
0.892
0.912
0.916
0.968
1.016
0.908
0.856
0.768
0.724
0.748
0.868
0.896
0.780
0.844
1.028
0.800
0.756
0.852
0.920
0.804
0.756
0.804
0.736
0.716
0.748
0.796
0.872
0.828
0.724
0.720
0.716
0.724
0.724
0.700
0.688
0.684
0.676
0.664
0.680
0.676
0.680
0.696
0.696
0.688
0.688
0.688
0.664
0.648
0.632
0.636
0.648
0.648
0.628
0.628
0.696
1.048
0.968
0.920
0.808
0.724
0.748
0.816
0.828
0.776
0.732
0.772
0.928
0.940
0.816
0.880
0.856
0.840
0.792
0.836
0.864
0.832
0.800
0.840
0.820
0.832
0.788
0.808
0.852
0.888
0.808
0.772
0.788
0.856
0.884
0.800
0.844
0.980
0.892
0.796
0.812
0.968
0.968
0.808
0.808
0.884
0.860
0.776
0.804
1.128
0.956
0.884
0.956
1.000
0.896
0.856
0.936
0.920
0.840
0.868
0.984
0.972
0.828
0.852
0.860
0.888
0.816
0.908
0.980
0.956
0.824
0.856
0.900
0.956
0.900
0.920
0.836
0.804
0.948
0.948
0.840
0.796
0.928
0.888
0.772
0.824
0.976
0.908
0.804
0.888
0.944
0.828
0.776
0.788
0.836
0.888
0.808
0.816
1.092
0.928
0.868
0.900
0.912
0.856
0.840
0.872
0.856
0.792
0.828
0.884
0.900
0.808
0.848
0.900
0.808
0.808
0.804
0.776
0.720
0.696
0.672
0.648
0.656
0.668
0.684
0.748
0.800
0.740
0.708
0.772
0.884
0.736
0.744
0.768
0.756
0.700
0.704
0.720
0.772
0.784
0.796
0.800
0.804
0.724
0.760
0.820
0.788
0.752
0.708
0.736
0.892
0.948
0.808
0.784
0.792
0.768
0.728
0.752
0.920
0.944
0.808
0.848
0.804
0.756
0.796
0.840
0.860
0.812
0.748
0.704
0.724
1.136
0.864
0.760
0.712
0.676
0.664
0.664
0.752
0.740
0.720
0.696
0.700
1.052
0.764
0.796
0.860
0.808
0.812
0.852
0.840
0.848
0.808
0.780
0.756
0.784
0.828
0.772
0.768
0.788
0.764
0.744
0.756
0.852
0.920
0.792
0.760
0.832
0.972
0.800
0.808
0.856
0.872
0.796
0.832
0.888
0.860
0.788
0.792
0.852
0.920
0.852
0.828
0.896
0.928
0.900
0.892
0.892
0.900
0.832
0.816
0.900
0.840
0.768
0.760
0.760
0.724
0.728
0.708
0.676
0.688
0.712
0.872
1.112
0.844
0.824
0.864
0.884
0.832
0.796
0.904
0.944
0.944
0.912
0.920
0.900
0.836
0.792
0.752
0.788
1.036
1.020
0.836
0.804
0.808
0.772
0.748
0.760
0.776
0.764
0.772
0.804
0.788
0.752
0.784
0.784
0.796
0.764
0.788
0.800
0.836
0.812
0.840
0.824
0.800
0.768
0.792
0.876
0.968
0.924
0.900
0.872
0.844
0.784
0.812
0.844
0.900
0.792
0.836
0.952
0.804
0.744
0.780
1.192
1.032
0.852
0.928
0.964
0.836
0.784
0.832
1.152
0.996
0.860
0.908
1.056
0.932
0.876
0.876
0.884
0.864
0.808
0.804
1.148
0.952
0.836
0.820
0.980
0.908
0.836
0.848
0.904
0.868
0.768
0.768
0.868
0.956
0.884
0.856
0.896
0.892
0.808
0.828
0.896
0.900
0.800
0.844
0.972
0.952
0.848
0.876
0.868
0.800
0.776
0.836
0.912
0.804
0.812
0.812
0.852
0.784
0.816
0.868
0.876
0.792
0.788
0.864
0.852
0.788
0.784
0.836
0.876
0.792
0.820
0.872
0.860
0.796
0.816
0.844
0.788
0.756
0.760
0.780
0.756
0.736
0.776
0.848
0.788
0.776
0.808
0.820
0.756
0.788
0.828
0.816
0.764
0.796
0.836
0.820
0.760
0.804
0.868
0.796
0.780
0.832
0.992
0.860
0.848
0.884
0.836
0.816
0.888
0.968
0.856
0.856
0.952
0.960
0.860
0.932
0.980
0.880
0.820
0.852
0.944
0.884
0.880
0.956
0.896
0.816
0.836
1.000
1.016
0.856
0.852
1.044
0.896
0.780
0.836
1.184
0.944
0.948
1.008
0.884
0.756
0.768
1.180
0.984
0.896
0.920
0.992
0.852
0.796
0.840
0.888
0.892
0.828
1.000
1.016
0.928
0.868
0.900
0.928
0.852
0.880
1.004
0.912
0.796
0.824
0.960
0.948
0.864
0.888
0.932
0.884
0.796
0.824
0.932
0.952
0.836
0.848
0.896
0.852
0.808
0.888
1.008
0.864
0.756
0.732
0.808
1.152
0.848
0.748
0.792
0.904
0.844
0.820
0.868
0.888
0.804
0.796
0.860
0.960
0.904
0.872
0.888
0.876
0.832
0.788
0.816
0.920
0.896
0.804
0.820
0.860
0.820
0.784
0.856
1.000
0.888
0.812
0.848
0.828
0.800
0.772
0.868
0.968
0.860
0.896
0.992
0.920
0.816
0.804
0.840
0.796
0.768
0.836
1.156
0.856
0.820
0.916
0.852
0.792
0.880
0.956
0.836
0.820
0.820
0.868
0.824
0.844
0.892
0.848
0.796
0.808
0.860
0.808
0.752
0.776
0.796
0.784
0.780
0.836
0.840
0.776
0.748
0.780
0.932
0.828
0.804
0.900
0.904
0.792
0.744
0.764
0.744
0.716
0.708
0.672
0.664
0.668
0.704
0.868
0.956
0.820
0.840
0.900
0.800
0.788
0.912
0.928
0.804
0.836
0.960
0.816
0.740
0.808
1.120
0.884
0.776
0.864
1.016
0.836
0.840
0.916
0.896
0.824
0.848
0.872
0.832
0.884
0.888
0.816
0.812
0.832
0.764
0.728
0.716
0.924
1.076
0.856
0.840
1.128
0.928
0.868
0.912
0.920
0.840
0.804
0.952
0.904
0.864
0.868
0.756
0.708
0.688
0.668
0.660
0.676
0.744
0.748
0.700
0.732
0.796
0.816
0.776
0.768
0.768
0.772
0.736
0.740
0.744
0.764
0.756
0.784
0.808
0.796
0.740
0.772
0.820
0.792
0.804
0.824
0.812
0.756
0.700
0.692
0.696
0.752
0.732
0.792
0.776
0.816
0.744
0.680
0.688
0.688
0.744
0.764
0.768
0.736
0.696
0.700
0.736
0.912
0.876
0.780
0.828
0.892
0.872
0.804
0.756
0.836
1.092
0.900
0.804
0.880
0.964
0.872
0.800
0.888
0.896
0.868
0.832
0.904
0.920
0.856
0.928
1.028
0.900
0.780
0.776
0.796
0.824
0.804
0.968
1.068
0.908
0.892
0.948
0.844
0.772
0.812
0.868
0.840
0.780
0.840
0.924
0.888
0.788
0.796
0.824
0.932
0.836
0.828
0.928
0.912
0.824
0.856
0.884
0.836
0.808
0.900
0.928
0.824
0.800
0.860
0.992
0.860
0.800
0.844
0.864
0.832
0.824
0.820
0.800
0.816
0.832
0.936
0.876
0.864
0.928
0.828
0.744
0.820
1.032
0.864
0.760
0.816
1.104
0.856
0.764
0.828
1.136
0.980
0.836
0.772
0.888
1.096
0.944
0.820
0.780
1.200
1.036
0.880
0.808
0.944
1.004
0.856
0.792
0.928
1.040
0.828
0.760
0.840
1.024
0.872
0.820
0.924
0.956
0.876
0.808
0.832
0.908
0.900
0.796
0.804
0.912
0.936
0.836
0.872
0.920
0.872
0.876
0.908
0.924
0.848
0.916
0.988
0.928
0.952
0.952
0.796
0.752
0.860
1.104
0.876
0.892
1.016
0.880
0.848
1.072
0.960
0.884
0.924
0.920
0.896
0.804
0.756
0.932
1.064
0.880
0.780
0.820
1.084
0.912
0.812
0.840
0.944
0.908
0.828
0.884
0.880
0.840
0.796
0.892
0.980
0.908
0.884
1.060
0.932
0.880
0.912
0.924
0.832
0.880
0.904
0.840
0.880
0.868
0.836
0.812
0.868
0.888
0.796
0.780
0.876
0.908
0.828
0.824
0.952
0.884
0.828
0.732
0.764
1.008
0.892
0.796
0.772
0.912
0.936
0.832
0.848
0.900
0.868
0.856
0.944
0.888
0.792
0.792
0.796
0.808
0.808
0.912
0.836
0.756
0.772
0.832
0.852
0.784
0.796
0.844
0.908
0.840
0.892
0.944
0.860
0.840
0.916
0.920
0.824
0.832
1.040
0.916
0.808
0.860
1.020
0.892
0.912
0.948
0.928
0.840
0.828
0.872
0.932
0.848
0.872
0.984
0.852
0.792
0.828
0.904
0.816
0.840
0.896
0.892
0.812
0.828
0.848
0.808
0.772
0.820
1.024
0.920
0.860
0.900
0.872
0.788
0.744
0.804
1.048
0.876
0.796
0.816
0.856
0.776
0.772
0.836
0.896
0.828
0.824
0.844
0.792
0.740
0.732
0.708
0.676
0.704
0.708
0.684
0.788
1.152
0.956
0.824
0.944
1.016
0.848
0.764
0.708
0.684
0.680
0.704
0.836
0.804
0.732
0.700
0.692
0.672
0.644
0.620
0.640
0.652
0.632
0.640
0.640
0.636
0.724
0.800
0.696
0.656
0.648
0.632
0.620
0.612
0.596
0.596
0.592
0.604
0.628
0.672
0.676
0.656
0.676
0.656
0.652
0.636
0.628
0.624
0.616
0.612
0.600
0.596
0.596
0.596
0.608
0.612
0.608
0.616
0.664
0.768
0.828
0.788
0.744
0.752
0.724
0.712
0.696
0.720
0.724
0.740
0.716
0.736
0.780
0.784
0.728
0.748
0.776
0.848
0.804
0.764
0.772
0.820
0.792
0.764
0.780
0.796
0.752
0.728
0.744
0.776
0.760
0.744
0.772
0.836
0.808
0.768
0.792
0.820
0.836
0.764
0.788
0.804
0.784
0.748
0.768
0.800
0.800
0.748
0.696
0.708
0.836
0.992
0.792
0.712
0.700
0.764
1.076
0.944
0.816
0.784
0.792
0.812
0.760
0.784
0.924
0.912
0.800
0.764
0.724
0.752
0.828
1.040
0.824
0.808
0.884
0.940
0.820
0.784
0.864
0.956
0.856
0.788
0.768
0.860
1.064
0.936
0.828
0.840
0.804
0.800
0.828
0.904
0.828
0.848
0.896
0.928
0.824
0.828
0.828
0.772
0.776
0.816
0.948
0.916
0.740
0.712
0.704
0.720
0.692
0.660
0.676
0.780
1.132
0.960
0.852
0.912
0.960
0.908
0.800
0.828
0.860
0.772
0.756
0.872
0.932
0.788
0.800
0.884
0.840
0.808
0.876
0.960
0.864
0.848
0.860
0.820
0.744
0.756
0.752
0.776
0.744
0.708
0.724
0.760
0.776
0.756
0.752
0.756
0.800
0.820
0.772
0.836
0.752
0.700
0.684
0.696
0.736
0.880
0.752
0.776
0.812
0.868
0.840
0.828
0.828
0.940
0.888
0.744
0.744
0.752
0.816
0.844
0.804
0.764
0.748
0.700
0.728
1.204
0.848
0.724
0.752
1.244
0.948
0.740
0.740
1.268
1.040
0.808
0.752
1.264
1.052
0.844
0.952
